			GMRT Grid Version 3.7
Longitude	Latitude	Distance (km)	Elevation (m)
-117.86747	-51.965237	0.0	-2793.3865
-118.02625	-51.94079	11.215744	-2452.1294
-118.18486	-51.91613	22.431488	-2723.765
-118.34329	-51.89126	33.647232	-2667.3076
-118.50155	-51.866173	44.862976	-2801.72
-118.65963	-51.840878	56.07872	-2855.5132
-118.817535	-51.81537	67.294464	-2842.0337
-118.97526	-51.78965	78.51021	-2924.5552
-119.1328	-51.763718	89.72595	-2961.9246
-119.29016	-51.737576	100.941696	-2912.3118
-119.447334	-51.711227	112.15744	-3171.1099
-119.60433	-51.684666	123.373184	-3010.5444
-119.76114	-51.657898	134.58893	-3095.1038
-119.91776	-51.63092	145.80467	-3073.6226
-120.074196	-51.603733	157.02042	-3074.0588
-120.230446	-51.57634	168.23616	-3133.6836
-120.386505	-51.54874	179.4519	-2970.347
-120.54237	-51.52093	190.66765	-3210.8303
-120.69805	-51.49292	201.88339	-3211.692
-120.85354	-51.4647	213.09914	-3212.403
-121.008835	-51.436275	224.31488	-3298.979
-121.16393	-51.407646	235.53062	-3303.672
-121.31884	-51.37881	246.74637	-3326.1042
-121.47355	-51.349773	257.9621	-3348.3098
-121.62806	-51.32053	269.17783	-3355.2583
-121.78238	-51.291084	280.39355	-3392.8242
-121.93649	-51.26144	291.60928	-3389.4866
-122.09041	-51.23159	302.825	-3415.925
-122.244125	-51.201538	314.04074	-3385.132
-122.397644	-51.171288	325.25647	-3471.021
-122.55096	-51.140835	336.4722	-3440.282
-122.70407	-51.11018	347.68793	-3411.3745
-122.85698	-51.079327	358.90366	-3570.7856
-123.00968	-51.048275	370.1194	-3503.8325
-123.16218	-51.017025	381.3351	-3632.8755
-123.31447	-50.985577	392.55084	-3636.2205
-123.46655	-50.95393	403.76657	-3626.2927
-123.61843	-50.922085	414.9823	-3745.1465
-123.7701	-50.890045	426.19803	-3598.0618
-123.92156	-50.85781	437.41376	-3815.8225
-124.07281	-50.82538	448.6295	-3748.23
-124.22385	-50.79275	459.8452	-3696.5176
-124.37468	-50.759926	471.06094	-3697.6082
-124.52529	-50.72691	482.27667	-3642.8398
-124.6757	-50.6937	493.4924	-3741.4377
-124.82589	-50.660297	504.70813	-3570.3745
-124.97586	-50.6267	515.9239	-3617.8625
-125.125626	-50.59291	527.13965	-3641.5293
-125.27517	-50.55893	538.3554	-3731.1006
-125.4245	-50.52476	549.57117	-3642.9685
-125.57361	-50.4904	560.7869	-3569.8323
-125.7225	-50.455845	572.0027	-3580.2969
-125.871185	-50.4211	583.21844	-3682.2407
-126.01964	-50.38617	594.4342	-3747.8347
-126.167885	-50.35105	605.64996	-3798.3936
-126.3159	-50.315742	616.8657	-3952.038
-126.4637	-50.280247	628.0815	-3865.0083
-126.61128	-50.244564	639.29724	-3838.1882
-126.75864	-50.208694	650.513	-3548.4795
-126.90577	-50.172638	661.72876	-3859.379
-127.05269	-50.1364	672.9445	-3999.4739
-127.19938	-50.09997	684.1603	-3965.2832
-127.34584	-50.063362	695.37604	-4031.4753
-127.49209	-50.026566	706.5918	-4064.2456
-127.6381	-49.989586	717.80756	-4034.5312
-127.7839	-49.952427	729.0233	-3870.4863
-127.92947	-49.91508	740.2391	-3846.7654
-128.0748	-49.877556	751.45483	-3898.535
-128.21992	-49.83985	762.6706	-3770.8665
-128.3648	-49.80196	773.88635	-3937.2505
-128.50948	-49.763893	785.1021	-3907.677
-128.6539	-49.725647	796.3179	-3891.6182
-128.79811	-49.687218	807.5336	-3920.6794
-128.9421	-49.648613	818.7494	-3884.7117
-129.08585	-49.60983	829.96515	-3954.4607
-129.22935	-49.570866	841.1809	-3929.863
-129.37265	-49.531727	852.39667	-4156.3364
-129.51572	-49.49241	863.6124	-4059.6592
-129.65854	-49.45292	874.8282	-4197.443
-129.80115	-49.41325	886.04395	-4096.036
-129.94351	-49.37341	897.2597	-4146.4966
-130.08565	-49.33339	908.47546	-4214.4443
-130.22755	-49.293198	919.6912	-4221.9556
-130.36923	-49.252834	930.907	-4309.577
-130.51068	-49.212296	942.12274	-4384.5464
-130.65189	-49.171585	953.3385	-4361.2734
-130.79286	-49.130703	964.55426	-4288.2793
-130.93361	-49.089653	975.77	-4376.043
-131.07413	-49.048428	986.9858	-4432.7153
-131.2144	-49.007034	998.20154	-4504.8823
-131.35445	-48.96547	1009.4173	-4500.911
-131.49426	-48.923737	1020.63306	-4649.616
-131.63383	-48.881832	1031.8488	-4574.3535
-131.7732	-48.839764	1043.0645	-4595.9277
-131.9123	-48.797523	1054.2802	-4733.3555
-132.05118	-48.75512	1065.4958	-4698.0913
-132.1898	-48.712547	1076.7115	-4579.0894
-132.32822	-48.66981	1087.9272	-4777.4062
-132.46638	-48.626907	1099.143	-4989.3535
-132.60432	-48.58384	1110.3586	-4815.9277
-132.74202	-48.540604	1121.5743	-4595.97
-132.87949	-48.497208	1132.79	-4875.6616
-133.01672	-48.453648	1144.0057	-5004.713
-133.15372	-48.409927	1155.2214	-5111.18
-133.29047	-48.36604	1166.4371	-4855.044
-133.42699	-48.321995	1177.6528	-4702.6694
-133.56328	-48.277786	1188.8685	-4730.944
-133.69933	-48.233418	1200.0842	-4446.4385
-133.83514	-48.18889	1211.2999	-4965.175
-133.97072	-48.1442	1222.5156	-5016.4795
-134.10605	-48.09935	1233.7313	-4966.697
-134.24117	-48.054344	1244.947	-4928.245
-134.37602	-48.00918	1256.1627	-4950.532
-134.51067	-47.963856	1267.3784	-4916.275
-134.64505	-47.918377	1278.5941	-4860.912
-134.77922	-47.87274	1289.8098	-4653.5205
-134.91313	-47.826946	1301.0255	-4580.902
-135.04681	-47.781002	1312.2412	-4721.02
-135.18027	-47.734898	1323.4569	-4929.3926
-135.31348	-47.68864	1334.6726	-4773.274
-135.44646	-47.64223	1345.8883	-4843.902
-135.5792	-47.595665	1357.104	-4811.567
-135.7117	-47.54895	1368.3197	-4848.466
-135.84396	-47.50208	1379.5354	-4902.6587
-135.976	-47.45506	1390.7511	-4890.1875
-136.10779	-47.407887	1401.9668	-4920.0186
-136.23935	-47.36056	1413.1825	-4966.0527
-136.37068	-47.313087	1424.3982	-4179.243
-136.50175	-47.265465	1435.6139	-4723.709
-136.63261	-47.217693	1446.8296	-5032.7686
-136.76323	-47.169773	1458.0453	-4834.673
-136.8936	-47.121704	1469.261	-4785.4824
-137.02374	-47.073486	1480.4767	-4664.9946
-137.15366	-47.02512	1491.6924	-5018.5854
-137.28333	-46.976612	1502.9081	-5282.3555
-137.41277	-46.927956	1514.1238	-5466.659
-137.54196	-46.87915	1525.3395	-5405.8657
-137.67093	-46.830204	1536.5552	-5655.4185
-137.79965	-46.781113	1547.7709	-5620.071
-137.92815	-46.731876	1558.9866	-4386.2495
-138.05641	-46.682495	1570.2023	-4723.349
-138.18443	-46.632973	1581.418	-4958.7236
-138.31223	-46.583305	1592.6337	-5169.961
-138.43979	-46.5335	1603.8494	-5186.2554
-138.56711	-46.48355	1615.0651	-5153.879
-138.6942	-46.43346	1626.2808	-5007.7236
-138.82106	-46.38323	1637.4965	-5110.343
-138.94768	-46.33286	1648.7122	-5072.546
-139.07407	-46.28235	1659.9279	-5133.229
-139.20023	-46.2317	1671.1436	-5167.724
-139.32614	-46.180912	1682.3593	-5210.2485
-139.45183	-46.129986	1693.575	-5346.9233
-139.57729	-46.078922	1704.7906	-5531.3926
-139.70251	-46.027725	1716.0063	-4953.6357
-139.82751	-45.976387	1727.222	-5074.127
-139.95227	-45.924915	1738.4377	-5380.76
-140.0768	-45.873306	1749.6534	-5303.2114
-140.2011	-45.821564	1760.8691	-5311.735
-140.32516	-45.769688	1772.0848	-5284.0527
-140.449	-45.717674	1783.3005	-5164.0654
-140.5726	-45.665527	1794.5162	-5287.7207
-140.69598	-45.61325	1805.7319	-5114.899
-140.81912	-45.56084	1816.9476	-5131.009
-140.94205	-45.508297	1828.1633	-5174.64
-141.06473	-45.455624	1839.379	-5249.456
-141.18718	-45.402817	1850.5947	-4974.1885
-141.30942	-45.34988	1861.8104	-5153.355
-141.43141	-45.296814	1873.0261	-5251.038
-141.55318	-45.243618	1884.2418	-5033.0254
-141.67473	-45.190292	1895.4575	-5076.3994
-141.79604	-45.13684	1906.6732	-5117.0156
-141.91713	-45.08326	1917.8889	-5063.9805
-142.03798	-45.02955	1929.1046	-5055.6567
-142.15862	-44.97571	1940.3203	-4896.79
-142.27902	-44.92175	1951.536	-5206.5605
-142.3992	-44.86766	1962.7517	-5162.852
-142.51915	-44.813442	1973.9674	-5016.122
-142.63889	-44.7591	1985.1831	-5208.197
-142.75839	-44.704636	1996.3988	-5273.3745
-142.87767	-44.650047	2007.6145	-5340.133
-142.99672	-44.595333	2018.8302	-5293.7876
-143.11555	-44.540493	2030.0459	-5341.324
-143.23416	-44.485535	2041.2616	-5425.4863
-143.35254	-44.43045	2052.4773	-5326.4937
-143.4707	-44.375244	2063.693	-5344.2485
-143.58864	-44.31992	2074.909	-5440.449
-143.70634	-44.26447	2086.1248	-5437.3955
-143.82384	-44.208904	2097.3406	-5254.8696
-143.94112	-44.153214	2108.5564	-5120.3545
-144.05815	-44.097404	2119.7722	-5303.7197
-144.17499	-44.041477	2130.988	-5274.982
-144.2916	-43.98543	2142.2039	-5282.33
-144.40797	-43.929268	2153.4197	-5378.87
-144.52414	-43.872982	2164.6355	-5400.04
-144.64009	-43.81658	2175.8513	-5315.45
-144.75583	-43.760067	2187.0671	-5398.2495
-144.87134	-43.703434	2198.283	-5213.976
-144.98662	-43.646683	2209.4988	-4785.7935
-145.1017	-43.589817	2220.7146	-4408.838
-145.21655	-43.532837	2231.9304	-5227.8604
-145.33119	-43.475742	2243.1462	-5378.548
-145.44562	-43.41853	2254.362	-5312.722
-145.55981	-43.361206	2265.578	-5342.0874
-145.67381	-43.303772	2276.7937	-5434.344
-145.78758	-43.24622	2288.0095	-5246.797
-145.90115	-43.188557	2299.2253	-5609.1196
-146.0145	-43.130783	2310.4412	-5640.127
-146.12762	-43.0729	2321.657	-5515.7773
-146.24054	-43.0149	2332.8728	-5534.719
-146.35324	-42.95679	2344.0886	-5510.5137
-146.46574	-42.89857	2355.3044	-5267.753
-146.57802	-42.840244	2366.5203	-5239.3696
-146.69008	-42.781807	2377.736	-5213.1377
-146.80194	-42.72326	2388.952	-5544.5244
-146.91359	-42.664604	2400.1677	-5544.918
-147.02502	-42.60584	2411.3835	-5387.4243
-147.13625	-42.546967	2422.5994	-5447.462
-147.24725	-42.487988	2433.8152	-5392.317
-147.35806	-42.4289	2445.031	-5516.695
-147.46866	-42.36971	2456.2468	-5563.3667
-147.57904	-42.31041	2467.4626	-5350.4995
-147.68922	-42.251007	2478.6785	-5091.546
-147.7992	-42.191498	2489.8943	-4914.2056
-147.90895	-42.13188	2501.11	-5135.5337
-148.01851	-42.072163	2512.326	-5606.191
-148.12787	-42.01234	2523.5417	-5339.4565
-148.23701	-41.952415	2534.7576	-5325.8623
-148.34595	-41.892384	2545.9734	-5498.8545
-148.4547	-41.832253	2557.1892	-5444.351
-148.56322	-41.77202	2568.405	-5063.41
-148.67155	-41.71168	2579.6208	-5087.435
-148.77968	-41.65124	2590.8367	-5127.2666
-148.8876	-41.590702	2602.0525	-4983.9
-148.99532	-41.530064	2613.2683	-4973.516
-149.10283	-41.469322	2624.4841	-4887.529
-149.21014	-41.40848	2635.7	-4954.403
-149.31726	-41.34754	2646.9158	-5253.5083
-149.42418	-41.286503	2658.1316	-5381.2017
-149.5309	-41.225365	2669.3474	-5203.028
-149.6374	-41.164127	2680.5632	-5266.219
-149.74373	-41.102795	2691.779	-5483.3633
-149.84984	-41.041363	2702.9949	-5397.0195
-149.95576	-40.979836	2714.2107	-5238.479
-150.0615	-40.91821	2725.4265	-5278.594
-150.167	-40.856487	2736.6423	-5156.656
-150.27234	-40.79467	2747.8582	-5370.003
-150.37747	-40.732758	2759.074	-5225.2354
-150.4824	-40.670746	2770.2898	-5176.7935
-150.58714	-40.608643	2781.5056	-5114.431
-150.6917	-40.546448	2792.7214	-5126.237
-150.79605	-40.484154	2803.9373	-5068.925
-150.9002	-40.42177	2815.153	-4851.124
-151.00417	-40.35929	2826.369	-4891.7603
-151.10794	-40.29672	2837.5847	-4941.833
-151.21153	-40.234055	2848.8005	-5083.2314
-151.31491	-40.171295	2860.0164	-5133.8022
-151.4181	-40.108448	2871.2322	-4960.2417
-151.52112	-40.04551	2882.448	-4988.401
-151.62393	-39.98248	2893.6638	-5090.9756
-151.72656	-39.919357	2904.8796	-4974.558
-151.82901	-39.856144	2916.0955	-5015.9404
-151.93126	-39.792843	2927.3113	-5112.1636
-152.03331	-39.72945	2938.527	-5039.3843
-152.1352	-39.66597	2949.743	-4945.1787
-152.23688	-39.6024	2960.9587	-5001.7637
-152.33838	-39.538746	2972.1746	-5035.012
-152.4397	-39.475	2983.3904	-5053.586
-152.54082	-39.411163	2994.6062	-4996.4966
-152.64177	-39.347244	3005.822	-5059.3765
-152.74252	-39.283234	3017.0378	-5009.9795
-152.8431	-39.21914	3028.2537	-5018.4443
-152.94348	-39.15496	3039.4695	-5063.763
-153.0437	-39.09069	3050.6853	-4958.277
-153.14372	-39.02634	3061.9011	-4869.2256
-153.24356	-38.961903	3073.117	-4993.5913
-153.34323	-38.89738	3084.3328	-4996.346
-153.4427	-38.83277	3095.5486	-4989.3066
-153.542	-38.76808	3106.7644	-5077.735
-153.64113	-38.703304	3117.9802	-5160.452
-153.74007	-38.638447	3129.196	-5094.8438
-153.83882	-38.5735	3140.4119	-5181.6406
-153.93741	-38.508476	3151.6277	-5159.3535
-154.03581	-38.44337	3162.8435	-5162.5
-154.13405	-38.37818	3174.0593	-5126.819
-154.23209	-38.31291	3185.2751	-5133.3677
-154.32997	-38.247555	3196.491	-5167.729
-154.42766	-38.18212	3207.7068	-5099.288
-154.52519	-38.116608	3218.9226	-5113.649
-154.62253	-38.05101	3230.1384	-5240.3916
-154.71971	-37.985336	3241.3542	-5198.1006
-154.81671	-37.919582	3252.57	-5230.736
-154.91353	-37.853745	3263.786	-5274.675
-155.0102	-37.787834	3275.0017	-5329.855
-155.10667	-37.72184	3286.2175	-5390.1074
-155.20297	-37.65577	3297.4333	-5308.9824
-155.29912	-37.58962	3308.6492	-5321.2793
-155.39508	-37.52339	3319.865	-5239.6997
-155.49088	-37.45709	3331.0808	-5252.5967
-155.5865	-37.390705	3342.2966	-5409.5938
-155.68196	-37.324245	3353.5125	-5286.1323
-155.77725	-37.25771	3364.7283	-5324.0884
-155.87238	-37.1911	3375.944	-5399.192
-155.96732	-37.124413	3387.16	-5296.329
-156.0621	-37.057648	3398.3757	-5592.5137
-156.15672	-36.99081	3409.5916	-5566.71
-156.25117	-36.923897	3420.8074	-5471.1855
-156.34546	-36.85691	3432.0232	-5497.305
-156.43959	-36.78985	3443.239	-5488.869
-156.53354	-36.72271	3454.4548	-5436.8833
-156.62733	-36.655502	3465.6707	-5627.484
-156.72096	-36.58822	3476.8865	-5553.362
-156.81442	-36.520863	3488.1023	-5466.612
-156.90773	-36.45343	3499.318	-5371.3467
-157.00087	-36.38593	3510.534	-5419.0815
-157.09384	-36.318356	3521.7498	-5209.3105
-157.18666	-36.25071	3532.9656	-5251.3477
-157.27933	-36.18299	3544.1814	-5288.7593
-157.37183	-36.115204	3555.3972	-5212.8086
-157.46416	-36.047344	3566.613	-5145.259
-157.55634	-35.979412	3577.8289	-5191.9326
-157.64836	-35.91141	3589.0447	-5070.437
-157.74022	-35.84334	3600.2605	-5319.3613
-157.83192	-35.7752	3611.4763	-5235.4785
-157.92346	-35.70699	3622.6921	-5353.3105
-158.01486	-35.63871	3633.908	-5430.8784
-158.1061	-35.570362	3645.1238	-5437.8457
-158.19717	-35.501945	3656.3396	-5503.4272
-158.28809	-35.43346	3667.5554	-5443.3833
-158.37886	-35.364906	3678.7712	-5351.4634
-158.46948	-35.296288	3689.987	-5411.578
-158.55994	-35.2276	3701.203	-5232.1772
-158.65024	-35.158844	3712.4187	-4983.5933
-158.7404	-35.09002	3723.6345	-5120.7295
-158.8304	-35.02113	3734.8503	-5085.695
-158.92026	-34.952175	3746.0662	-5393.78
-159.00995	-34.883156	3757.282	-5384.07
-159.0995	-34.814068	3768.4978	-5449.6836
-159.1889	-34.744915	3779.7136	-5389.5117
-159.27815	-34.675697	3790.9294	-5254.809
-159.36725	-34.606415	3802.1453	-5259.004
-159.4562	-34.537067	3813.361	-5289.162
-159.54501	-34.467655	3824.577	-5366.4175
-159.63367	-34.39818	3835.7927	-5284.144
-159.72218	-34.328636	3847.0085	-5258.4126
-159.81055	-34.259033	3858.2244	-5218.2056
-159.89876	-34.189365	3869.4402	-5273.0586
-159.98683	-34.119637	3880.656	-5132.0054
-160.07475	-34.049843	3891.8718	-5339.4
-160.16254	-33.97999	3903.0876	-5313.2627
-160.25017	-33.910072	3914.3035	-5336.6123
-160.33766	-33.84009	3925.5193	-4961.0703
-160.42502	-33.77005	3936.735	-5022.7905
-160.51222	-33.69995	3947.951	-5253.6714
-160.59929	-33.629787	3959.1667	-5276.4956
-160.6862	-33.559563	3970.3826	-5136.3193
-160.773	-33.489277	3981.5984	-5129.304
-160.85963	-33.41893	3992.8142	-5197.3716
-160.94614	-33.348526	4004.03	-5364.0283
-161.03249	-33.27806	4015.2458	-5334.411
-161.11871	-33.207535	4026.4617	-5092.7437
-161.20479	-33.136948	4037.6775	-5121.783
-161.29074	-33.066307	4048.8933	-5123.8516
-161.37654	-32.9956	4060.1091	-5368.139
-161.46222	-32.924843	4071.325	-5324.5874
-161.54774	-32.854023	4082.5408	-5116.875
-161.63313	-32.783146	4093.7566	-4755.9746
-161.7184	-32.71221	4104.972	-5219.1636
-161.80353	-32.641216	4116.188	-5544.455
-161.8885	-32.570168	4127.404	-5242.017
-161.97336	-32.499058	4138.6196	-5412.9106
-162.05809	-32.427895	4149.8354	-5320.6387
-162.14267	-32.356674	4161.0513	-5192.4077
-162.22713	-32.285397	4172.267	-5188.8613
-162.31145	-32.21406	4183.483	-5129.8574
-162.39563	-32.142673	4194.6987	-5277.607
-162.47969	-32.071228	4205.9146	-5218.917
-162.56361	-31.99973	4217.1304	-5324.203
-162.6474	-31.928173	4228.346	-5673.4004
-162.73106	-31.856564	4239.562	-5785.966
-162.8146	-31.784899	4250.778	-5313.3516
-162.89801	-31.713179	4261.9937	-4891.1797
-162.98128	-31.641405	4273.2095	-4531.676
-163.06444	-31.569576	4284.4253	-5056.34
-163.14745	-31.497696	4295.641	-5720.7026
-163.23035	-31.42576	4306.857	-5400.6416
-163.31311	-31.353773	4318.0728	-4910.7
-163.39574	-31.28173	4329.2886	-4973.303
-163.47826	-31.209637	4340.5044	-5018.3486
-163.56064	-31.137491	4351.72	-4959.625
-163.6429	-31.065292	4362.936	-4997.0713
-163.72504	-30.99304	4374.152	-5091.8965
-163.80705	-30.920738	4385.3677	-4965.977
-163.88893	-30.848383	4396.5835	-5046.9507
-163.9707	-30.775976	4407.7993	-4978.0522
-164.05234	-30.70352	4419.015	-5189.5933
-164.13385	-30.631012	4430.231	-5227.568
-164.21526	-30.558453	4441.447	-5404.538
-164.29652	-30.485842	4452.6626	-5407.2837
-164.37769	-30.413183	4463.8784	-5330.4004
-164.45871	-30.340473	4475.094	-5362.9688
-164.53963	-30.267712	4486.31	-5264.1235
-164.62042	-30.194902	4497.526	-5346.266
-164.70108	-30.122044	4508.7417	-5395.594
-164.78165	-30.049135	4519.9575	-5298.104
-164.86208	-29.976177	4531.1733	-5263.654
-164.9424	-29.903172	4542.389	-5063.872
-165.0226	-29.830116	4553.605	-4677.1445
-165.10268	-29.757013	4564.821	-4367.7373
-165.18263	-29.683863	4576.0366	-5026.71
-165.26248	-29.610664	4587.2524	-4999.0303
-165.34222	-29.537416	4598.4683	-5019.9404
-165.42184	-29.464123	4609.684	-5361.457
-165.50134	-29.39078	4620.9	-5432.8184
-165.58073	-29.317392	4632.1157	-5316.749
-165.66	-29.243956	4643.3315	-5390.5615
-165.73917	-29.170473	4654.5474	-5457.812
-165.8182	-29.096945	4665.763	-5482.1694
-165.89714	-29.023369	4676.979	-5534.301
-165.97597	-28.949747	4688.195	-5444.675
-166.05467	-28.876081	4699.4106	-5459.4067
-166.13327	-28.802368	4710.6265	-5524.1274
-166.21176	-28.72861	4721.8423	-5516.6567
-166.29013	-28.654806	4733.058	-5544.9175
-166.36841	-28.580957	4744.274	-5635.497
-166.44656	-28.507065	4755.4897	-5503.1455
-166.5246	-28.433126	4766.7056	-5318.892
-166.60254	-28.359144	4777.9214	-5474.398
-166.68037	-28.285116	4789.137	-5499.809
-166.75809	-28.211046	4800.353	-5519.5303
-166.83571	-28.136932	4811.569	-5662.9346
-166.91321	-28.062773	4822.7847	-5572.7617
-166.9906	-27.988571	4834.0005	-5525.271
-167.0679	-27.914326	4845.2163	-5568.114
-167.14508	-27.840038	4856.432	-5620.8647
-167.22217	-27.765707	4867.648	-5746.82
-167.29913	-27.691334	4878.864	-5679.036
-167.376	-27.616917	4890.0796	-5570.369
-167.45277	-27.54246	4901.2954	-5677.6772
-167.52943	-27.467958	4912.511	-5756.1777
-167.606	-27.393415	4923.727	-5807.8667
-167.68245	-27.318832	4934.943	-5747.989
-167.7588	-27.244205	4946.1587	-5680.3457
-167.83505	-27.169538	4957.3745	-5769.1396
-167.9112	-27.09483	4968.5903	-5622.928
-167.98724	-27.02008	4979.806	-5754.061
-168.06319	-26.945292	4991.022	-5659.812
-168.13904	-26.87046	5002.238	-6008.9556
-168.21478	-26.79559	5013.4536	-6004.3193
-168.29042	-26.720678	5024.6694	-5701.827
-168.36597	-26.645725	5035.8853	-5653.31
-168.44142	-26.570734	5047.101	-5634.742
-168.51677	-26.495705	5058.317	-5588.523
-168.59201	-26.420633	5069.5327	-6265.373
-168.66716	-26.345524	5080.7485	-5975.1016
-168.74222	-26.270374	5091.9644	-5821.236
-168.81717	-26.195187	5103.18	-5573.8955
-168.89203	-26.11996	5114.396	-5314.5293
-168.9668	-26.044695	5125.612	-3802.1948
-169.04146	-25.96939	5136.8276	-1838.6802
-169.11603	-25.894049	5148.0435	-3927.0989
-169.1905	-25.818668	5159.2593	-5316.6455
-169.2649	-25.74325	5170.475	-5461.704
-169.33917	-25.667795	5181.691	-5525.7563
-169.41336	-25.592302	5192.9067	-5784.858
-169.48747	-25.516771	5204.1226	-5452.8745
-169.56148	-25.441202	5215.3384	-4559.9727
-169.63539	-25.365599	5226.554	-5406.977
-169.70921	-25.289955	5237.77	-5818.4746
-169.78293	-25.214277	5248.986	-5604.73
-169.85657	-25.138563	5260.2017	-5684.6655
-169.93011	-25.06281	5271.4175	-5676.989
-170.00357	-24.987024	5282.6333	-5457.8706
-170.07693	-24.9112	5293.849	-5568.1826
-170.1502	-24.83534	5305.065	-5782.2275
-170.22339	-24.759445	5316.281	-5755.3364
-170.2965	-24.683516	5327.4966	-5701.441
-170.36949	-24.60755	5338.7124	-5744.631
-170.44241	-24.531548	5349.928	-5745.5264
-170.51524	-24.455511	5361.144	-5737.7485
