			GMRT Grid Version 4.0
Longitude	Latitude	Distance (km)	Elevation (m)
-153.241	28.536	-497.49637	-5525.535
-153.256	28.512	-494.45123	-5552.9497
-153.271	28.488	-491.4061	-5588.1587
-153.286	28.464	-488.36096	-5623.4756
-153.302	28.441	-485.31583	-5656.6743
-153.317	28.417	-482.2707	-5687.1157
-153.332	28.393	-479.22556	-5709.465
-153.348	28.369	-476.18042	-5702.6387
-153.363	28.345	-473.13528	-5652.1294
-153.378	28.321	-470.09015	-5587.131
-153.393	28.297	-467.04504	-5545.4927
-153.409	28.273	-463.99988	-5532.6455
-153.424	28.250	-460.95477	-5542.464
-153.439	28.226	-457.9096	-5565.0303
-153.454	28.202	-454.8645	-5589.0063
-153.469	28.178	-451.81934	-5617.561
-153.485	28.154	-448.77423	-5635.35
-153.500	28.130	-445.72906	-5634.4893
-153.515	28.106	-442.68396	-5628.1396
-153.530	28.082	-439.6388	-5625.5483
-153.545	28.058	-436.5937	-5623.0376
-153.561	28.035	-433.54852	-5578.656
-153.576	28.011	-430.50342	-5613.592
-153.591	27.987	-427.45825	-5568.4707
-153.606	27.963	-424.41315	-5488.5894
-153.621	27.939	-421.36798	-5581.883
-153.636	27.915	-418.32288	-5778.5386
-153.651	27.891	-415.2777	-5626.9585
-153.667	27.867	-412.2326	-5500.9243
-153.682	27.843	-409.18744	-5537.078
-153.697	27.819	-406.14233	-5536.5596
-153.712	27.796	-403.09717	-5585.3955
-153.727	27.772	-400.05206	-5609.085
-153.742	27.748	-397.0069	-5640.79
-153.757	27.724	-393.9618	-5543.7407
-153.772	27.700	-390.91663	-5493.6245
-153.787	27.676	-387.87152	-5489.557
-153.802	27.652	-384.82635	-5548.649
-153.817	27.628	-381.78125	-5591.504
-153.832	27.604	-378.73608	-5574.5806
-153.847	27.580	-375.69098	-5535.4272
-153.862	27.556	-372.6458	-5520.0796
-153.877	27.532	-369.6007	-5543.2783
-153.892	27.509	-366.55554	-5551.2056
-153.908	27.485	-363.51044	-5554.0596
-153.923	27.461	-360.46527	-5570.2515
-153.938	27.437	-357.42017	-5561.6978
-153.952	27.413	-354.375	-5525.2793
-153.967	27.389	-351.3299	-5519.2397
-153.982	27.365	-348.28473	-5546.658
-153.997	27.341	-345.23962	-5552.3794
-154.012	27.317	-342.19446	-5532.101
-154.027	27.293	-339.14935	-5544.1914
-154.042	27.269	-336.1042	-5545.8594
-154.057	27.245	-333.05908	-5518.748
-154.072	27.221	-330.01392	-5479.1665
-154.087	27.197	-326.9688	-5438.1006
-154.102	27.173	-323.92365	-5409.2964
-154.117	27.149	-320.87854	-5399.7925
-154.132	27.125	-317.83337	-5399.753
-154.147	27.102	-314.78827	-5413.091
-154.162	27.078	-311.7431	-5447.836
-154.177	27.054	-308.698	-5412.9146
-154.192	27.030	-305.65283	-5419.2554
-154.206	27.006	-302.60773	-5416.212
-154.221	26.982	-299.56256	-5338.7886
-154.236	26.958	-296.51746	-5317.0483
-154.251	26.934	-293.4723	-5314.5596
-154.266	26.910	-290.4272	-5333.366
-154.281	26.886	-287.38202	-5405.8677
-154.296	26.862	-284.3369	-5501.604
-154.310	26.838	-281.29175	-5542.919
-154.325	26.814	-278.24664	-5527.2407
-154.340	26.790	-275.20148	-5491.6772
-154.355	26.766	-272.15637	-5465.054
-154.370	26.742	-269.1112	-5472.1973
-154.385	26.718	-266.0661	-5481.7837
-154.399	26.694	-263.02094	-5473.498
-154.414	26.670	-259.97583	-5430.612
-154.429	26.646	-256.93066	-5329.4644
-154.444	26.622	-253.88554	-5077.676
-154.458	26.598	-250.84041	-5299.5474
-154.473	26.574	-247.79527	-5471.0815
-154.488	26.550	-244.75014	-5528.7563
-154.503	26.526	-241.705	-5526.9277
-154.518	26.502	-238.65988	-5504.3765
-154.532	26.478	-235.61475	-5526.3066
-154.547	26.454	-232.56961	-5498.404
-154.562	26.430	-229.52448	-5525.472
-154.576	26.406	-226.47934	-5528.0796
-154.591	26.382	-223.4342	-5516.828
-154.606	26.358	-220.38907	-5478.3643
-154.621	26.334	-217.34393	-5478.7935
-154.635	26.310	-214.2988	-5309.5356
-154.650	26.286	-211.25366	-5267.9062
-154.665	26.262	-208.20853	-5367.5728
-154.679	26.238	-205.16339	-5369.566
-154.694	26.214	-202.11826	-5397.417
-154.709	26.190	-199.07312	-5415.8267
-154.723	26.166	-196.02798	-5466.717
-154.738	26.142	-192.98285	-5458.855
-154.753	26.118	-189.93771	-5454.228
-154.767	26.094	-186.89258	-5427.171
-154.782	26.070	-183.84744	-5391.966
-154.797	26.046	-180.8023	-5432.141
-154.811	26.022	-177.75717	-5436.82
-154.826	25.998	-174.71204	-5419.6104
-154.841	25.974	-171.6669	-5378.051
-154.855	25.950	-168.62177	-5402.2466
-154.870	25.926	-165.57663	-5434.451
-154.884	25.902	-162.5315	-5410.0664
-154.899	25.878	-159.48636	-5351.7896
-154.914	25.854	-156.44122	-5285.994
-154.928	25.830	-153.39609	-5250.2007
-154.943	25.806	-150.35095	-5252.6777
-154.957	25.782	-147.30582	-5279.268
-154.972	25.758	-144.26068	-5313.3896
-154.986	25.734	-141.21555	-5340.799
-155.001	25.710	-138.17041	-5309.5317
-155.016	25.685	-135.12527	-5218.9595
-155.030	25.661	-132.08014	-5181.1587
-155.045	25.637	-129.035	-5059.2114
-155.059	25.613	-125.98987	-4931.589
-155.074	25.589	-122.94473	-4847.7803
-155.088	25.565	-119.8996	-4787.0225
-155.103	25.541	-116.85446	-4789.138
-155.117	25.517	-113.809326	-4820.3354
-155.132	25.493	-110.76419	-4860.574
-155.146	25.469	-107.719055	-4892.2837
-155.161	25.445	-104.67392	-4918.157
-155.175	25.421	-101.628784	-4952.0957
-155.190	25.397	-98.58365	-4999.43
-155.204	25.373	-95.53851	-5059.3433
-155.219	25.349	-92.49338	-5128.5625
-155.233	25.325	-89.44824	-5184.121
-155.248	25.301	-86.40311	-5192.383
-155.262	25.277	-83.35797	-5115.637
-155.276	25.252	-80.312836	-4994.55
-155.291	25.228	-77.2677	-4797.5054
-155.305	25.204	-74.222565	-4508.7695
-155.320	25.180	-71.17743	-4334.3447
-155.334	25.156	-68.13229	-4280.3384
-155.349	25.132	-65.08716	-4465.965
-155.363	25.108	-62.042023	-4423.132
-155.377	25.084	-58.996887	-4636.564
-155.392	25.060	-55.95175	-4839.0674
-155.406	25.036	-52.906616	-4885.648
-155.421	25.012	-49.86148	-4870.0146
-155.435	24.988	-46.816345	-4822.0503
-155.449	24.964	-43.77121	-4753.723
-155.464	24.939	-40.726074	-4749.1763
-155.478	24.915	-37.68094	-4717.419
-155.492	24.891	-34.635803	-4813.415
-155.507	24.867	-31.590668	-4793.677
-155.521	24.843	-28.545532	-4694.5723
-155.535	24.819	-25.500397	-4628.6465
-155.550	24.795	-22.455261	-4699.0786
-155.564	24.771	-19.410126	-4705.767
-155.578	24.747	-16.36499	-4703.807
-155.593	24.723	-13.319855	-4644.5444
-155.607	24.698	-10.274719	-4543.4756
-155.621	24.674	-7.2295837	-4526.388
-155.636	24.650	-4.1844482	-4547.1177
-155.650	24.626	-1.1393127	-4524.883
-155.664	24.602	1.9058228	-4640.22
-155.679	24.578	4.9509583	-4655.0283
-155.693	24.554	7.9960938	-4592.8115
-155.707	24.530	11.041229	-4579.61
-155.721	24.506	14.086365	-4570.9326
-155.736	24.481	17.1315	-4562.8457
-155.750	24.457	20.176605	-4574.389
-155.764	24.433	23.22171	-4605.501
-155.778	24.409	26.266815	-4597.233
-155.793	24.385	29.31192	-4531.2437
-155.807	24.361	32.357025	-4575.9575
-155.821	24.337	35.40213	-4509.487
-155.835	24.313	38.447235	-4507.127
-155.850	24.289	41.49234	-4453.575
-155.864	24.264	44.537445	-4486.1514
-155.878	24.240	47.58255	-4461.264
-155.892	24.216	50.627655	-4500.7944
-155.906	24.192	53.67276	-4478.659
-155.921	24.168	56.717865	-4497.0273
-155.935	24.144	59.76297	-4477.0664
-155.949	24.120	62.808075	-4472.7676
-155.963	24.095	65.85318	-4326.9507
-155.977	24.071	68.898285	-3913.861
-155.991	24.047	71.94339	-3978.7424
-156.006	24.023	74.988495	-4347.0107
-156.020	23.999	78.0336	-4334.0303
-156.034	23.975	81.078705	-4352.894
-156.048	23.951	84.12381	-4311.0674
-156.062	23.927	87.168915	-4294.2793
-156.076	23.902	90.21402	-4269.5054
-156.091	23.878	93.259125	-4289.0474
-156.105	23.854	96.30423	-4190.043
-156.119	23.830	99.349335	-4256.5825
-156.133	23.806	102.39444	-4267.3477
-156.147	23.782	105.439545	-4288.2534
-156.161	23.757	108.48465	-4292.63
-156.175	23.733	111.529755	-4281.3486
-156.189	23.709	114.57486	-4272.1787
-156.203	23.685	117.619965	-4251.0093
-156.217	23.661	120.66507	-4254.247
-156.232	23.637	123.710175	-4258.893
-156.246	23.613	126.75528	-4261.826
-156.260	23.588	129.80038	-4226.5635
-156.274	23.564	132.84549	-4259.909
-156.288	23.540	135.8906	-4251.5938
-156.302	23.516	138.9357	-4262.8086
-156.316	23.492	141.9808	-4266.037
-156.330	23.468	145.02591	-4260.2354
-156.344	23.443	148.07101	-4254.7437
-156.358	23.419	151.11612	-4230.452
-156.372	23.395	154.16122	-4116.6265
-156.386	23.371	157.20633	-4224.7896
-156.400	23.347	160.25143	-4241.372
-156.414	23.323	163.29654	-4232.182
-156.428	23.298	166.34164	-4229.174
-156.442	23.274	169.38675	-4227.95
-156.456	23.250	172.43185	-4228.2314
-156.470	23.226	175.47696	-4239.8364
-156.484	23.202	178.52206	-4245.535
-156.498	23.177	181.56717	-4250.0483
-156.512	23.153	184.61227	-4260.2563
-156.526	23.129	187.65738	-4266.2954
-156.540	23.105	190.70248	-4274.6616
-156.554	23.081	193.74759	-4274.5684
-156.568	23.056	196.7927	-4288.0522
-156.582	23.032	199.8378	-4289.3535
-156.596	23.008	202.8829	-4307.447
-156.610	22.984	205.92801	-4313.564
-156.624	22.960	208.97311	-4318.364
-156.638	22.936	212.01822	-4325.7705
-156.651	22.911	215.06332	-4323.567
-156.665	22.887	218.10843	-4330.4
-156.679	22.863	221.15353	-4362.313
-156.693	22.839	224.19864	-4383.7173
-156.707	22.815	227.24374	-4393.206
-156.721	22.790	230.28885	-4417.867
-156.735	22.766	233.33395	-4441.291
-156.749	22.742	236.37906	-4459.7144
-156.763	22.718	239.42416	-4465.8047
-156.777	22.694	242.46927	-4495.3105
-156.790	22.669	245.51437	-4515.5093
-156.804	22.645	248.55948	-4525.6465
-156.818	22.621	251.60458	-4540.1147
-156.832	22.597	254.64969	-4563.825
-156.846	22.572	257.6948	-4578.9067
-156.860	22.548	260.7399	-4616.136
-156.874	22.524	263.785	-4641.6934
-156.887	22.500	266.8301	-4669.602
-156.901	22.476	269.8752	-4648.34
-156.915	22.451	272.92032	-4571.854
-156.929	22.427	275.96542	-4655.2656
-156.943	22.403	279.01053	-4551.6187
-156.957	22.379	282.05563	-4297.6636
-156.970	22.354	285.10074	-4277.668
-156.984	22.330	288.14584	-4103.022
-156.998	22.306	291.19095	-4596.0303
-157.012	22.282	294.23605	-4034.8137
-157.026	22.258	297.28116	-4558.1484
-157.039	22.233	300.32626	-4622.4604
-157.053	22.209	303.37137	-4211.1133
-157.067	22.185	306.41647	-4435.8564
-157.081	22.161	309.46158	-4487.8706
-157.095	22.136	312.50668	-3890.285
-157.108	22.112	315.5518	-3229.1057
-157.122	22.088	318.5969	-3013.0706
-157.136	22.064	321.642	-2968.9724
-157.150	22.039	324.6871	-3597.2432
-157.163	22.015	327.7322	-4147.1177
-157.177	21.991	330.7773	-4105.4907
-157.191	21.967	333.82242	-3891.5732
-157.205	21.943	336.86752	-3970.0598
-157.218	21.918	339.91263	-4027.8564
-157.232	21.894	342.95773	-3882.5403
-157.246	21.870	346.00284	-4365.196
-157.259	21.846	349.04794	-4393.359
-157.273	21.821	352.09305	-4411.506
-157.287	21.797	355.13815	-4142.146
-157.301	21.773	358.18326	-3583.9338
-157.314	21.749	361.22836	-3483.9539
-157.328	21.724	364.27347	-3846.2908
-157.342	21.700	367.31857	-3421.8938
-157.355	21.676	370.36368	-3031.8813
-157.369	21.651	373.40878	-3095.2344
-157.383	21.627	376.4539	-3057.3462
-157.396	21.603	379.499	-3010.2783
-157.410	21.579	382.5441	-2923.3965
-157.424	21.554	385.5892	-2882.3264
-157.437	21.530	388.6343	-2716.0767
-157.451	21.506	391.6794	-2023.6843
-157.465	21.482	394.72452	-972.93396
-157.478	21.457	397.76962	-769.64307
-157.492	21.433	400.81473	-777.151
-157.505	21.409	403.85983	-753.6438
-157.519	21.385	406.90494	-709.90344
-157.533	21.360	409.95004	-651.89026
-157.546	21.336	412.99515	-608.6262
-157.560	21.312	416.04025	-258.80255
-157.574	21.288	419.08536	-105.180435
-157.587	21.263	422.13046	-180.27466
-157.601	21.239	425.17557	-536.3779
-157.614	21.215	428.22067	-670.58435
-157.628	21.190	431.26578	-670.5674
-157.642	21.166	434.31088	-665.9137
-157.655	21.142	437.356	-632.9507
-157.669	21.118	440.4011	-588.76495
-157.682	21.093	443.4462	-532.2786
-157.696	21.069	446.4913	-482.7494
-157.709	21.045	449.5364	-414.7528
-157.723	21.020	452.5815	-329.3784
-157.737	20.996	455.62662	-296.35803
-157.750	20.972	458.67172	-337.21933
-157.764	20.948	461.71683	-319.53995
-157.777	20.923	464.76193	-423.2707
-157.791	20.899	467.80704	-493.25507
-157.804	20.875	470.85214	-539.5868
-157.818	20.850	473.89725	-516.8764
-157.831	20.826	476.94235	-563.2821
-157.845	20.802	479.98746	-519.3211
-157.858	20.778	483.03256	-658.67413
-157.872	20.753	486.07767	-1602.385
-157.885	20.729	489.12277	-2425.327
-157.899	20.705	492.16788	-3138.6025
-157.912	20.680	495.21298	-3625.2837
-157.926	20.656	498.2581	-4351.118
-157.939	20.632	501.3032	-4602.7183
-157.953	20.607	504.3483	-4719.405
-157.966	20.583	507.3934	-4767.9604
-157.980	20.559	510.4385	-4764.259
-157.993	20.534	513.48364	-4748.5645
-158.007	20.510	516.5287	-4724.18
-158.020	20.486	519.57385	-4698.292
-158.034	20.462	522.6189	-4673.557
-158.047	20.437	525.66406	-4649.152
-158.061	20.413	528.7092	-4630.4097
-158.074	20.389	531.7544	-4602.9897
-158.087	20.364	534.79956	-4578.245
-158.101	20.340	537.8447	-4553.4194
-158.114	20.316	540.8899	-4535.007
-158.128	20.291	543.93506	-4504.1763
-158.141	20.267	546.9802	-4485.9033
-158.155	20.243	550.0254	-4478.377
-158.168	20.218	553.07056	-4433.67
-158.181	20.194	556.1157	-4451.5903
-158.195	20.170	559.1609	-4445.2236
-158.208	20.145	562.20605	-4436.509
-158.222	20.121	565.2512	-3896.3193
-158.235	20.097	568.2964	-3032.3079
-158.248	20.072	571.34155	-3226.0679
-158.262	20.048	574.3867	-4076.9822
-158.275	20.024	577.4319	-4391.0913
-158.289	19.999	580.47705	-4387.56
-158.302	19.975	583.5222	-4380.2666
-158.315	19.951	586.5674	-4373.03
-158.329	19.926	589.61255	-4368.349
-158.342	19.902	592.6577	-4359.9883
-158.355	19.878	595.7029	-4354.842
-158.369	19.853	598.74805	-4350.8945
-158.382	19.829	601.7932	-4344.7266
-158.395	19.805	604.8384	-4337.484
-158.409	19.780	607.88354	-4329.4614
-158.422	19.756	610.9287	-4317.097
-158.435	19.732	613.9739	-4287.875
-158.449	19.707	617.01904	-4257.371
-158.462	19.683	620.0642	-4232.449
-158.475	19.659	623.1094	-4182.197
-158.489	19.634	626.15454	-4155.788
-158.502	19.610	629.1997	-4185.3027
-158.515	19.586	632.2449	-4260.0356
-158.529	19.561	635.29004	-4300.733
-158.542	19.537	638.3352	-4306.3564
-158.555	19.513	641.3804	-4326.635
-158.569	19.488	644.42554	-4337.4976
-158.582	19.464	647.4707	-4363.2563
-158.595	19.440	650.51587	-4384.027
-158.608	19.415	653.56104	-4391.841
-158.622	19.391	656.6062	-4406.9326
-158.635	19.367	659.65137	-4420.799
-158.648	19.342	662.69653	-4442.607
-158.662	19.318	665.7417	-4445.1187
-158.675	19.294	668.78687	-4446.9136
-158.688	19.269	671.83203	-4447.0615
-158.701	19.245	674.8772	-4437.4434
-158.715	19.220	677.92236	-4409.2417
-158.728	19.196	680.9675	-4397.433
-158.741	19.172	684.0127	-4362.209
-158.754	19.147	687.05786	-4122.284
-158.768	19.123	690.103	-4145.011
-158.781	19.099	693.1482	-4272.784
-158.794	19.074	696.19336	-4351.613
-158.807	19.050	699.2385	-4381.884
-158.820	19.026	702.2837	-4475.963
-158.834	19.001	705.32886	-4457.6035
-158.847	18.977	708.374	-4423.622
-158.860	18.952	711.4192	-4362.871
-158.873	18.928	714.46436	-4325.262
-158.886	18.904	717.5095	-4153.945
-158.900	18.879	720.5547	-3982.6965
-158.913	18.855	723.59985	-4166.2266
-158.926	18.831	726.645	-4220.971
-158.939	18.806	729.6902	-3958.4666
-158.952	18.782	732.73535	-3791.7944
-158.966	18.757	735.7805	-3797.7573
-158.979	18.733	738.8257	-4049.5078
-158.992	18.709	741.87085	-4320.571
-159.005	18.684	744.916	-4514.382
-159.018	18.660	747.9612	-4640.354
-159.031	18.635	751.00635	-4713.1245
-159.045	18.611	754.0515	-4740.2153
-159.058	18.587	757.0967	-4758.4253
-159.071	18.562	760.14185	-4787.3643
-159.084	18.538	763.187	-4801.882
-159.097	18.514	766.2322	-4787.9404
-159.110	18.489	769.27734	-4784.6064
-159.123	18.465	772.3225	-4820.0107
-159.137	18.440	775.3677	-4824.563
-159.150	18.416	778.41284	-4813.833
-159.163	18.392	781.458	-4855.0103
-159.176	18.367	784.5032	-4869.5557
-159.189	18.343	787.54834	-4841.2935
-159.202	18.318	790.5935	-4859.9497
-159.215	18.294	793.6387	-4879.2095
-159.228	18.270	796.68384	-4903.451
-159.241	18.245	799.729	-4930.613
-159.255	18.221	802.7742	-4916.1943
-159.268	18.196	805.81934	-4944.9673
-159.281	18.172	808.8645	-4963.802
-159.294	18.148	811.90967	-4973.9155
-159.307	18.123	814.95483	-4996.6274
-159.320	18.099	818.0	-5009.186
-159.333	18.074	821.04517	-4975.838
-159.346	18.050	824.09033	-4983.257
-159.359	18.026	827.1355	-5019.248
-159.372	18.001	830.18066	-5064.966
-159.385	17.977	833.2258	-5093.4814
-159.398	17.952	836.271	-5098.343
-159.411	17.928	839.31616	-5096.151
-159.424	17.904	842.3613	-5111.978
-159.437	17.879	845.4065	-5133.6934
-159.451	17.855	848.45166	-5168.244
-159.464	17.830	851.4968	-5171.208
-159.477	17.806	854.542	-5177.327
-159.490	17.782	857.58716	-5197.5605
-159.503	17.757	860.6323	-5189.014
-159.516	17.733	863.6775	-5246.7437
-159.529	17.708	866.72266	-5310.6943
-159.542	17.684	869.7678	-5329.8896
-159.555	17.659	872.813	-5317.8716
-159.568	17.635	875.85815	-5327.731
-159.581	17.611	878.9033	-5422.4053
-159.594	17.586	881.9485	-5398.8247
-159.607	17.562	884.99365	-5322.0283
-159.620	17.537	888.0388	-5325.3984
-159.633	17.513	891.084	-5378.148
-159.646	17.488	894.12915	-5391.1475
-159.659	17.464	897.1743	-5448.235
-159.672	17.440	900.2195	-5510.652
-159.685	17.415	903.26465	-5523.896
-159.698	17.391	906.3098	-5488.313
-159.711	17.366	909.355	-5475.7505
-159.724	17.342	912.40015	-5456.7
-159.737	17.317	915.4453	-5440.1763
-159.749	17.293	918.4905	-5453.9116
-159.762	17.269	921.53564	-5453.419
-159.775	17.244	924.5808	-5533.4297
-159.788	17.220	927.626	-5531.009
-159.801	17.195	930.67114	-5477.9956
-159.814	17.171	933.7163	-5581.191
-159.827	17.146	936.7615	-5609.2554
-159.840	17.122	939.80664	-5577.9585
-159.853	17.098	942.8518	-5589.41
-159.866	17.073	945.897	-5596.363
-159.879	17.049	948.94214	-5576.0703
-159.892	17.024	951.9873	-5581.8604
-159.905	17.000	955.0325	-5594.62
-159.918	16.975	958.07764	-5587.1343
-159.931	16.951	961.1228	-5608.063
-159.943	16.926	964.16797	-5602.5054
-159.956	16.902	967.21313	-5631.8945
-159.969	16.878	970.2583	-5666.4263
-159.982	16.853	973.30347	-5680.557
-159.995	16.829	976.34863	-5662.745
-160.008	16.804	979.3938	-5667.7695
-160.021	16.780	982.43896	-5675.5283
-160.034	16.755	985.48413	-5674.082
-160.047	16.731	988.5293	-5681.151
-160.059	16.706	991.57446	-5659.7085
-160.072	16.682	994.6196	-5671.2896
-160.085	16.658	997.6648	-5682.6064
-160.098	16.633	1000.70996	-5661.73
-160.111	16.609	1003.7551	-5696.253
-160.124	16.584	1006.8003	-5703.107
-160.137	16.560	1009.84546	-5705.0776
-160.150	16.535	1012.8906	-5681.7856
-160.162	16.511	1015.9358	-5663.9688
-160.175	16.486	1018.98096	-5681.05
-160.188	16.462	1022.0261	-5688.285
-160.201	16.437	1025.0713	-5684.5757
-160.214	16.413	1028.1165	-5697.747
-160.227	16.389	1031.1616	-5697.275
-160.239	16.364	1034.2068	-5678.851
-160.252	16.340	1037.252	-5693.9087
-160.265	16.315	1040.2971	-5682.616
-160.278	16.291	1043.3423	-5664.8687
-160.291	16.266	1046.3875	-5660.3125
-160.304	16.242	1049.4326	-5673.831
-160.316	16.217	1052.4778	-5659.1704
-160.329	16.193	1055.523	-5663.2285
-160.342	16.168	1058.5681	-5670.4233
-160.355	16.144	1061.6133	-5667.4795
-160.368	16.119	1064.6584	-5663.497
-160.380	16.095	1067.7036	-5653.166
-160.393	16.070	1070.7488	-5657.9634
-160.406	16.046	1073.794	-5654.921
-160.419	16.022	1076.8391	-5684.643
-160.432	15.997	1079.8843	-5657.408
-160.444	15.973	1082.9294	-5632.7993
-160.457	15.948	1085.9746	-5646.003
-160.470	15.924	1089.0198	-5639.459
-160.483	15.899	1092.065	-5630.5356
-160.495	15.875	1095.1101	-5629.763
-160.508	15.850	1098.1553	-5626.706
-160.521	15.826	1101.2004	-5628.0615
-160.534	15.801	1104.2456	-5682.096
-160.546	15.777	1107.2908	-5635.0386
-160.559	15.752	1110.3359	-5630.307
-160.572	15.728	1113.3811	-5625.6367
-160.585	15.703	1116.4263	-5583.102
-160.597	15.679	1119.4714	-5597.744
-160.610	15.654	1122.5166	-5597.638
-160.623	15.630	1125.5618	-5606.382
-160.636	15.605	1128.6069	-5598.9204
-160.648	15.581	1131.6521	-5590.5625
-160.661	15.556	1134.6973	-5603.0615
-160.674	15.532	1137.7424	-5624.531
-160.687	15.507	1140.7876	-5627.357
-160.699	15.483	1143.8328	-5639.268
-160.712	15.458	1146.8779	-5638.4546
-160.725	15.434	1149.9231	-5644.9346
-160.737	15.409	1152.9683	-5497.092
-160.750	15.385	1156.0134	-5550.6772
-160.763	15.360	1159.0586	-5605.2236
-160.776	15.336	1162.1038	-5607.2324
-160.788	15.312	1165.1489	-5577.4644
