			GMRT Grid Version 4.2.1
Longitude	Latitude	Distance (km)	Elevation (m)
37.16	-44.76	0.0	-1666.9181
37.13	-44.82	7.269857	-1970.349
37.09	-44.88	14.539714	-2156.8696
37.05	-44.94	21.80957	-2331.7732
37.02	-45.00	29.079428	-2161.5842
36.98	-45.06	36.349285	-2271.9822
36.94	-45.12	43.61914	-2368.5466
36.91	-45.18	50.888996	-1865.2882
36.87	-45.24	58.15885	-1552.2126
36.83	-45.30	65.42871	-2289.1133
36.79	-45.36	72.69857	-2629.1792
36.76	-45.42	79.96843	-2542.5513
36.72	-45.48	87.23829	-2447.4822
36.68	-45.54	94.50815	-2730.4673
36.64	-45.60	101.77801	-2669.8025
36.61	-45.66	109.04787	-2518.918
36.57	-45.72	116.317726	-2702.8142
36.53	-45.78	123.587585	-2639.7004
36.49	-45.84	130.85744	-2571.701
36.45	-45.90	138.12729	-2748.484
36.41	-45.96	145.39714	-2878.4219
36.38	-46.02	152.66699	-2921.1396
36.34	-46.08	159.93684	-2942.4482
36.30	-46.14	167.2067	-2874.1926
36.26	-46.20	174.47655	-2899.7197
36.22	-46.26	181.7464	-2946.976
36.18	-46.31	189.01625	-2911.818
36.15	-46.37	196.2861	-2951.764
36.11	-46.43	203.55595	-3181.459
36.07	-46.49	210.8258	-3204.2834
36.03	-46.55	218.09566	-3288.1492
35.99	-46.61	225.36551	-3352.745
35.95	-46.67	232.63536	-3386.062
35.91	-46.73	239.90521	-3179.7021
35.87	-46.79	247.17506	-3265.7722
35.83	-46.85	254.44492	-3343.3406
35.79	-46.91	261.71478	-3304.5012
35.75	-46.97	268.98465	-3530.8008
35.71	-47.03	276.25452	-3733.0398
35.67	-47.09	283.52438	-3911.951
35.63	-47.15	290.79425	-3453.9272
35.59	-47.21	298.06412	-3520.58
35.55	-47.27	305.33398	-3787.238
35.51	-47.33	312.60385	-3862.9548
35.47	-47.39	319.87372	-3979.92
35.43	-47.45	327.1436	-3753.527
35.39	-47.51	334.41345	-3547.7476
35.35	-47.56	341.68332	-4043.9697
35.31	-47.62	348.9532	-4074.9907
35.27	-47.68	356.22305	-3879.7114
35.23	-47.74	363.49292	-3717.2078
35.19	-47.80	370.7628	-3794.359
35.15	-47.86	378.03265	-3883.9492
35.11	-47.92	385.30252	-3821.9985
35.06	-47.98	392.5724	-3674.6218
35.02	-48.04	399.84225	-3605.0974
34.98	-48.10	407.11212	-3546.2727
34.94	-48.16	414.382	-3806.9573
34.90	-48.22	421.65186	-3911.0105
34.86	-48.28	428.92172	-4057.0286
34.81	-48.33	436.1916	-3990.8145
34.77	-48.39	443.46146	-3630.9988
34.73	-48.45	450.73132	-3618.5632
34.69	-48.51	458.0012	-3971.548
34.65	-48.57	465.27106	-4163.977
34.60	-48.63	472.54092	-4349.3853
34.56	-48.69	479.8108	-4353.438
34.52	-48.75	487.08066	-4067.5444
34.48	-48.81	494.35052	-4140.484
34.43	-48.87	501.6204	-4391.88
34.39	-48.93	508.89026	-4545.64
34.35	-48.98	516.1601	-4499.932
34.31	-49.04	523.42993	-4514.6797
34.26	-49.10	530.69977	-4663.05
34.22	-49.16	537.9696	-4943.525
34.18	-49.22	545.23944	-5031.3867
34.13	-49.28	552.5093	-4697.447
34.09	-49.34	559.7791	-4433.872
34.05	-49.40	567.04895	-4595.6523
34.00	-49.46	574.3188	-5082.7856
33.96	-49.52	581.5886	-4978.0454
33.91	-49.57	588.85846	-4738.039
33.87	-49.63	596.1283	-4686.2085
33.83	-49.69	603.39813	-4945.5503
33.78	-49.75	610.66797	-5212.0293
33.74	-49.81	617.9378	-5299.254
33.69	-49.87	625.20764	-5240.6353
33.65	-49.93	632.4775	-5112.585
33.60	-49.99	639.7473	-5083.484
33.56	-50.04	647.01715	-5180.7295
33.51	-50.10	654.287	-5122.5425
33.47	-50.16	661.5568	-4911.6616
33.42	-50.22	668.82666	-4915.4956
33.38	-50.28	676.0965	-5016.2617
33.33	-50.34	683.36633	-5014.1816
33.29	-50.40	690.63617	-5012.289
33.24	-50.45	697.906	-5167.3003
33.20	-50.51	705.17584	-5261.5693
33.15	-50.57	712.4457	-5239.829
33.10	-50.63	719.7155	-5171.4004
33.06	-50.69	726.98535	-5246.6504
33.01	-50.75	734.2552	-5301.4014
32.97	-50.81	741.525	-5115.7627
32.92	-50.86	748.79486	-5011.752
32.87	-50.92	756.0647	-5017.0674
32.83	-50.98	763.33453	-5112.224
32.78	-51.04	770.6044	-4997.8506
32.73	-51.10	777.8742	-4801.5137
32.69	-51.16	785.14404	-4949.983
32.64	-51.21	792.4139	-5232.4297
32.59	-51.27	799.6837	-5295.0527
32.54	-51.33	806.95355	-5266.743
32.50	-51.39	814.2234	-5305.4526
32.45	-51.45	821.4932	-5372.0835
32.40	-51.51	828.76306	-5398.6387
32.35	-51.56	836.0329	-5217.011
32.31	-51.62	843.30273	-5218.419
32.26	-51.68	850.5726	-5410.9683
32.21	-51.74	857.8424	-5552.688
32.16	-51.80	865.11224	-5596.3247
32.11	-51.85	872.3821	-5437.1216
32.06	-51.91	879.6519	-5187.1206
32.02	-51.97	886.92175	-5106.659
31.97	-52.03	894.1916	-5125.169
31.92	-52.09	901.4614	-5040.103
31.87	-52.15	908.73126	-4979.402
31.82	-52.20	916.0011	-5184.6177
31.77	-52.26	923.27094	-5279.084
31.72	-52.32	930.5408	-5175.3525
31.67	-52.38	937.8106	-5162.463
31.62	-52.44	945.08044	-5343.924
31.57	-52.49	952.3503	-5444.1865
31.52	-52.55	959.6201	-5453.069
31.47	-52.61	966.88995	-5491.17
31.42	-52.67	974.1598	-5534.9893
31.37	-52.72	981.4296	-5551.459
31.32	-52.78	988.69946	-5500.605
31.27	-52.84	995.9693	-5454.1523
31.22	-52.90	1003.23914	-5519.3794
31.17	-52.96	1010.509	-5628.9497
31.12	-53.01	1017.7788	-5641.4907
31.07	-53.07	1025.0487	-5580.3403
31.02	-53.13	1032.3186	-5533.3955
30.96	-53.19	1039.5885	-5599.683
30.91	-53.24	1046.8584	-5550.4414
30.86	-53.30	1054.1283	-5559.81
30.81	-53.36	1061.3982	-5702.878
30.76	-53.42	1068.6681	-5653.4634
30.70	-53.47	1075.938	-5649.1494
30.65	-53.53	1083.2079	-5586.5454
30.60	-53.59	1090.4778	-5468.013
30.55	-53.65	1097.7477	-5473.3438
30.49	-53.70	1105.0176	-5415.0996
30.44	-53.76	1112.2875	-5456.183
30.39	-53.82	1119.5574	-5537.7104
30.34	-53.88	1126.8273	-5540.054
30.28	-53.93	1134.0972	-5553.9287
30.23	-53.99	1141.3671	-5478.5273
30.18	-54.05	1148.637	-5381.629
30.12	-54.11	1155.9069	-5395.1245
30.07	-54.16	1163.1768	-5475.34
30.01	-54.22	1170.4467	-5544.2686
29.96	-54.28	1177.7166	-5531.9604
29.91	-54.33	1184.9865	-5473.832
29.85	-54.39	1192.2563	-5462.587
29.80	-54.45	1199.5262	-5409.763
29.74	-54.51	1206.7961	-5493.6396
29.69	-54.56	1214.066	-5396.361
29.63	-54.62	1221.3359	-5478.389
29.58	-54.68	1228.6058	-5557.058
29.52	-54.73	1235.8757	-5534.3975
29.47	-54.79	1243.1456	-5505.492
29.41	-54.85	1250.4155	-5489.8584
29.35	-54.90	1257.6854	-5482.289
29.30	-54.96	1264.9553	-5489.565
29.24	-55.02	1272.2252	-5505.3257
29.18	-55.08	1279.4951	-5558.6455
29.13	-55.13	1286.765	-5648.1655
29.07	-55.19	1294.0349	-5702.375
29.01	-55.25	1301.3048	-5678.935
28.96	-55.30	1308.5747	-5628.3325
28.90	-55.36	1315.8446	-5607.281
28.84	-55.42	1323.1145	-5524.637
28.79	-55.47	1330.3844	-5469.3057
28.73	-55.53	1337.6543	-5471.51
28.67	-55.59	1344.9242	-5457.6133
28.61	-55.64	1352.1941	-5538.1523
28.55	-55.70	1359.464	-5657.503
28.50	-55.76	1366.7339	-5550.8237
28.44	-55.81	1374.0038	-5469.099
28.38	-55.87	1381.2737	-5472.2656
28.32	-55.93	1388.5436	-5516.0605
28.26	-55.98	1395.8135	-5565.8823
28.20	-56.04	1403.0834	-5552.48
28.14	-56.09	1410.3533	-5455.611
28.08	-56.15	1417.6232	-5378.751
28.02	-56.21	1424.8931	-5357.0757
27.96	-56.26	1432.163	-5374.592
27.90	-56.32	1439.4329	-5387.315
27.84	-56.38	1446.7028	-5395.941
27.78	-56.43	1453.9727	-5378.2627
27.72	-56.49	1461.2426	-5401.043
27.66	-56.54	1468.5125	-5468.287
27.60	-56.60	1475.7823	-5487.504
27.54	-56.66	1483.0522	-5443.308
27.48	-56.71	1490.3221	-5435.496
27.42	-56.77	1497.592	-5445.6084
27.35	-56.82	1504.8619	-5445.01
27.29	-56.88	1512.1318	-5467.106
27.23	-56.94	1519.4017	-5467.692
27.17	-56.99	1526.6716	-5458.2637
27.11	-57.05	1533.9415	-5454.033
27.04	-57.10	1541.2114	-5447.672
26.98	-57.16	1548.4813	-5441.286
26.92	-57.22	1555.7512	-5440.484
26.85	-57.27	1563.0211	-5468.851
26.79	-57.33	1570.291	-5458.9253
26.73	-57.38	1577.5609	-5452.884
26.66	-57.44	1584.8308	-5441.8154
26.60	-57.49	1592.1007	-5445.6123
26.54	-57.55	1599.3706	-5434.057
26.47	-57.60	1606.6405	-5446.663
26.41	-57.66	1613.9104	-5387.575
26.34	-57.72	1621.1803	-5423.8257
26.28	-57.77	1628.4502	-5435.7754
26.21	-57.83	1635.7201	-5433.2495
26.15	-57.88	1642.99	-5424.5063
26.08	-57.94	1650.2599	-5425.6787
26.02	-57.99	1657.5298	-5434.298
25.95	-58.05	1664.7997	-5439.344
25.88	-58.10	1672.0696	-5440.255
25.82	-58.16	1679.3395	-5443.9688
25.75	-58.21	1686.6094	-5440.27
25.68	-58.27	1693.8793	-5431.755
25.62	-58.32	1701.1492	-5420.418
25.55	-58.38	1708.4191	-5427.048
25.48	-58.43	1715.689	-5423.346
25.42	-58.49	1722.9589	-5425.5044
25.35	-58.54	1730.2288	-5427.817
25.28	-58.60	1737.4987	-5419.9307
25.21	-58.65	1744.7686	-5402.0605
25.14	-58.71	1752.0385	-5227.819
25.07	-58.76	1759.3083	-4665.6665
25.00	-58.82	1766.5782	-4428.8135
24.94	-58.87	1773.8481	-4336.913
24.87	-58.93	1781.118	-4243.8413
24.80	-58.98	1788.388	-4293.69
24.73	-59.04	1795.6578	-4293.448
24.66	-59.09	1802.9277	-4348.8433
24.59	-59.15	1810.1976	-4744.557
24.52	-59.20	1817.4675	-5319.137
24.45	-59.25	1824.7374	-5396.176
24.38	-59.31	1832.0073	-5432.839
24.30	-59.36	1839.2772	-5654.2314
24.23	-59.42	1846.5471	-5756.515
24.16	-59.47	1853.817	-5585.765
24.09	-59.53	1861.0869	-5250.908
24.02	-59.58	1868.3568	-5281.857
23.95	-59.64	1875.6267	-5377.1064
23.87	-59.69	1882.8966	-5357.104
23.80	-59.74	1890.1665	-5382.3936
23.73	-59.80	1897.4364	-5401.849
23.65	-59.85	1904.7063	-5314.3433
23.58	-59.91	1911.9762	-5330.4453
23.51	-59.96	1919.2461	-5363.521
23.43	-60.01	1926.516	-5300.561
23.36	-60.07	1933.7859	-5242.1597
23.28	-60.12	1941.0558	-5236.682
23.21	-60.17	1948.3257	-5213.1016
23.13	-60.23	1955.5956	-5240.373
23.06	-60.28	1962.8655	-5247.447
22.98	-60.34	1970.1354	-5281.1133
22.91	-60.39	1977.4053	-5271.5635
22.83	-60.44	1984.6752	-5258.7095
22.76	-60.50	1991.9451	-5263.9946
22.68	-60.55	1999.215	-5262.979
22.60	-60.60	2006.4849	-5242.474
22.53	-60.66	2013.7548	-5229.414
22.45	-60.71	2021.0247	-5216.9097
22.37	-60.76	2028.2946	-5217.834
22.29	-60.82	2035.5645	-5196.069
22.22	-60.87	2042.8344	-5179.473
22.14	-60.92	2050.1042	-5250.7847
22.06	-60.98	2057.374	-5306.7065
21.98	-61.03	2064.6438	-5317.464
21.90	-61.08	2071.9136	-5310.957
21.82	-61.14	2079.1833	-5300.761
21.74	-61.19	2086.4531	-5282.9004
21.66	-61.24	2093.723	-5203.137
21.58	-61.29	2100.9927	-5147.488
21.50	-61.35	2108.2625	-5199.88
21.42	-61.40	2115.5322	-5189.027
21.34	-61.45	2122.802	-5197.9165
21.26	-61.51	2130.0718	-5224.614
21.18	-61.56	2137.3416	-5223.4204
21.10	-61.61	2144.6113	-5220.1465
21.02	-61.66	2151.881	-5228.717
20.93	-61.72	2159.151	-5240.1064
20.85	-61.77	2166.4207	-5213.844
20.77	-61.82	2173.6904	-5187.7314
20.69	-61.87	2180.9602	-5198.8394
20.60	-61.93	2188.23	-5220.7075
20.52	-61.98	2195.4998	-5199.312
20.43	-62.03	2202.7695	-5171.884
20.35	-62.08	2210.0393	-5145.735
20.27	-62.13	2217.309	-5212.943
20.18	-62.19	2224.5789	-5202.819
20.10	-62.24	2231.8486	-5154.1074
20.01	-62.29	2239.1184	-5133.8003
19.92	-62.34	2246.3882	-5141.679
19.84	-62.39	2253.658	-5132.439
19.75	-62.45	2260.9277	-5152.588
19.67	-62.50	2268.1975	-5155.45
19.58	-62.55	2275.4673	-5135.108
19.49	-62.60	2282.737	-5111.8906
19.40	-62.65	2290.0068	-5155.1963
19.32	-62.70	2297.2766	-5076.4917
19.23	-62.75	2304.5464	-4993.031
19.14	-62.81	2311.8162	-5002.617
19.05	-62.86	2319.086	-4980.5225
18.96	-62.91	2326.3557	-4895.6333
18.87	-62.96	2333.6255	-4830.2017
18.78	-63.01	2340.8953	-4870.694
18.69	-63.06	2348.165	-4941.6074
18.60	-63.11	2355.4348	-4987.144
18.51	-63.16	2362.7046	-5081.216
18.42	-63.21	2369.9744	-5110.4
18.33	-63.27	2377.2441	-5122.4155
18.24	-63.32	2384.514	-5137.05
18.15	-63.37	2391.7837	-5139.15
18.05	-63.42	2399.0535	-5121.6836
17.96	-63.47	2406.3232	-5091.316
17.87	-63.52	2413.593	-5074.749
17.78	-63.57	2420.8628	-5112.5645
17.68	-63.62	2428.1326	-5164.9785
17.59	-63.67	2435.4023	-5152.015
17.49	-63.72	2442.672	-5055.2505
17.40	-63.77	2449.942	-5039.296
17.31	-63.82	2457.2117	-5059.129
17.21	-63.87	2464.4814	-5060.0503
17.11	-63.92	2471.7512	-5062.719
17.02	-63.97	2479.021	-5003.407
16.92	-64.02	2486.2908	-4883.475
16.83	-64.07	2493.5605	-4841.654
16.73	-64.12	2500.8303	-4878.903
16.63	-64.17	2508.1	-4820.2437
16.53	-64.22	2515.3699	-4868.4624
16.44	-64.27	2522.6396	-4874.84
16.34	-64.32	2529.9094	-4837.036
16.24	-64.37	2537.1792	-4842.01
16.14	-64.42	2544.449	-4862.8086
16.04	-64.47	2551.7188	-4834.3667
15.94	-64.52	2558.9885	-4889.388
15.84	-64.57	2566.2583	-4705.873
15.74	-64.62	2573.528	-4472.431
15.64	-64.66	2580.7979	-4467.3906
15.54	-64.71	2588.0676	-4367.4907
15.44	-64.76	2595.3374	-4239.1875
15.33	-64.81	2602.6072	-4231.4844
15.23	-64.86	2609.877	-4158.8037
15.13	-64.91	2617.1467	-4031.1233
15.03	-64.96	2624.4165	-3926.0518
14.92	-65.01	2631.6863	-3885.7654
14.82	-65.06	2638.956	-3777.6936
14.72	-65.10	2646.2258	-3355.086
14.61	-65.15	2653.4956	-3293.2026
14.51	-65.20	2660.7654	-3343.8984
